<?xml version="1.0" encoding="utf-8" ?>
<COLLADA xmlns="http://www.collada.org/2005/11/COLLADASchema" version="1.4.1">
    <asset>
        <contributor>
            <authoring_tool>modo 601 [Build 48460], Microsoft Windows 7 Service Pack 1 (6.1.7601 Service Pack 1)</authoring_tool>
            <comments>
                Plug-in: [Build 48460];
                Use Absolute Path: No;
                Merge Reference Items: No;
                Save Hidden Items: Yes;
                Save Cameras: Yes;
                Save Lights: Yes;
                Save Locators: Yes;
                Save Triangles as Triangles: No;
                Bake Matrices: No;
                Save Vertex Normals: Yes;
                Save UV Texture Coordinates: Yes;
                Save Vertex Colors: Yes;
                Save Vertex Weights: Yes;
                Save Animation: Yes;
                Sample Animation: No;
                Sample Animation Start: 0;
                Sample Animation End: 120;
                Save modo Profile: Yes;
                Save Maya Profile: Yes;
                Save 3ds Max Profile: Yes;
                Formatted Arrays: Yes;
            </comments>
            <source_data>file:///D:/Work/Google%20Drive/Work%20-%20Studio/Frictional%20Games/Station_batch10/assets/fluorescent_ceil_cabin_large/fluorescent_ceil_cabin_large_low.lxo</source_data>
        </contributor>
        <created>2012-06-28T20:35:22Z</created>
        <modified>2012-06-28T20:35:22Z</modified>
        <unit name="game" meter="1" />
        <up_axis>Y_UP</up_axis>
    </asset>
    <library_cameras>
        <camera id="Camera-camera004" name="Camera">
            <optics>
                <technique_common>
                    <perspective>
                        <xfov sid="HFOV">39.5978</xfov>
                        <yfov sid="YFOV">26.9915</yfov>
                        <znear sid="near_clip">0.01</znear>
                        <zfar sid="far_clip">10000</zfar>
                    </perspective>
                </technique_common>
                <technique profile="modo401">
                    <param sid="projType" name="Projection_Type" type="Name">persp</param>
                    <param sid="focalLen" name="Focal_Length" type="float">0.05</param>
                    <param sid="distort" name="Lens_Distortion" type="float">0</param>
                    <param sid="squeeze" name="Lens_Squeeze" type="float">1</param>
                    <param sid="focusDist" name="Focus_Distance" type="float">4</param>
                    <param sid="fStop" name="F-Stop" type="float">4</param>
                    <param sid="blurLen" name="Blur_Length" type="float">0.5</param>
                    <param sid="blurOff" name="Blur_Offset" type="float">0</param>
                    <param sid="ioDist" name="Interocular_Distance" type="float">0.065</param>
                    <param sid="convDist" name="Convergence_Distance" type="float">2</param>
                </technique>
            </optics>
            <imager>
                <technique profile="modo401">
                    <param sid="apertureX" name="Film_Width" type="float">0.036</param>
                    <param sid="apertureY" name="Film_Height" type="float">0.024</param>
                    <param sid="offsetX" name="Film_Offset_X" type="float">0</param>
                    <param sid="offsetY" name="Film_Offset_Y" type="float">0</param>
                    <param sid="filmFit" name="Film_Fit" type="Name">fill</param>
                </technique>
            </imager>
        </camera>
    </library_cameras>
    <library_images>
        <image id="Image0001" name="Image0001">
            <init_from>file:///D:/Work/Google%20Drive/Work%20-%20Studio/Frictional%20Games/Station_batch10/assets/fluorescent_ceil_cabin_large/fluorescent_ceil_cabin_large.psd</init_from>
        </image>
        <image id="Image0002" name="Image0002">
            <init_from>file:///D:/Work/Google%20Drive/Work%20-%20Studio/Frictional%20Games/Station_batch10/assets/fluorescent_ceil_cabin_large/fluorescent_ceil_cabin_large_illum.tga</init_from>
        </image>
        <image id="Image0003" name="Image0003">
            <init_from>file:///D:/Work/Google%20Drive/Work%20-%20Studio/Frictional%20Games/Station_batch10/assets/fluorescent_ceil_cabin_large/fluorescent_ceil_cabin_large_nrm.tga</init_from>
        </image>
        <image id="Image0004" name="Image0004">
            <init_from>file:///D:/Work/Google%20Drive/Work%20-%20Studio/Frictional%20Games/Station_batch10/assets/fluorescent_ceil_cabin_large/fluorescent_ceil_cabin_large_spec.tga</init_from>
        </image>
    </library_images>
    <library_materials>
        <material id="Material-fluorescent_ceil_cabin_large" name="fluorescent_ceil_cabin_large">
            <instance_effect url="#Effect-fluorescent_ceil_cabin_large" />
        </material>
    </library_materials>
    <library_effects>
        <effect id="Effect-fluorescent_ceil_cabin_large" name="fluorescent_ceil_cabin_large">
            <profile_COMMON>
                <newparam sid="Image0002-surface">
                    <surface type="2D">
                        <init_from>Image0002</init_from>
                        <format>A8R8G8B8</format>
                    </surface>
                </newparam>
                <newparam sid="Image0002-sampler">
                    <sampler2D>
                        <source>Image0002-surface</source>
                        <minfilter>LINEAR_MIPMAP_LINEAR</minfilter>
                        <magfilter>LINEAR</magfilter>
                    </sampler2D>
                </newparam>
                <newparam sid="Image0001-surface">
                    <surface type="2D">
                        <init_from>Image0001</init_from>
                        <format>A8R8G8B8</format>
                    </surface>
                </newparam>
                <newparam sid="Image0001-sampler">
                    <sampler2D>
                        <source>Image0001-surface</source>
                        <minfilter>LINEAR_MIPMAP_LINEAR</minfilter>
                        <magfilter>LINEAR</magfilter>
                    </sampler2D>
                </newparam>
                <newparam sid="Image0004-surface">
                    <surface type="2D">
                        <init_from>Image0004</init_from>
                        <format>A8R8G8B8</format>
                    </surface>
                </newparam>
                <newparam sid="Image0004-sampler">
                    <sampler2D>
                        <source>Image0004-surface</source>
                        <minfilter>LINEAR_MIPMAP_LINEAR</minfilter>
                        <magfilter>LINEAR</magfilter>
                    </sampler2D>
                </newparam>
                <technique sid="common">
                    <phong>
                        <diffuse>
                            <texture texture="Image0001-sampler" texcoord="uvSet1" />
                        </diffuse>
                        <specular>
                            <texture texture="Image0004-sampler" texcoord="uvSet1" />
                        </specular>
                        <shininess>
                            <float sid="specular_effect_rgb">1.36604</float>
                        </shininess>
                    </phong>
                </technique>
            </profile_COMMON>
        </effect>
    </library_effects>
    <library_geometries>
        <geometry id="Geometry-mesh017" name="flourescent_ceil_cabin_large">
            <mesh>
                <source id="Geometry-mesh017-positions" name="positions">
                    <float_array id="Geometry-mesh017-positions-array" count="546">
                        -0.259136 -0.132224 -0.608973
                        -0.247729 -0.132224 -0.620379
                        0.259136 -0.132224 -0.608973
                        0.247729 -0.132224 -0.620379
                        0.259136 -0.132224 0.608973
                        0.247729 -0.132224 0.62038
                        -0.259136 -0.132224 0.608973
                        -0.247729 -0.132224 0.62038
                        -0.222865 -0.169436 -0.595266
                        -0.234271 -0.169436 -0.58386
                        -0.247339 -0.160705 0.597058
                        -0.235932 -0.160705 0.608464
                        -0.247339 -0.160705 -0.597058
                        -0.235932 -0.160705 -0.608464
                        -0.25607 -0.147638 0.605877
                        -0.244663 -0.147638 0.617283
                        -0.244663 -0.147638 -0.617283
                        -0.25607 -0.147638 -0.605877
                        0.235932 -0.160705 -0.608464
                        0.247339 -0.160705 -0.597058
                        0.235932 -0.160705 0.608464
                        0.247339 -0.160705 0.597058
                        0.244663 -0.147638 -0.617283
                        0.25607 -0.147638 -0.605877
                        0.244663 -0.147638 0.617283
                        0.25607 -0.147638 0.605877
                        -0.270186 -0.0227954 -0.635186
                        -0.27375 -0.0227954 -0.631621
                        0.27375 -0.0227954 -0.631621
                        0.270186 -0.0227954 -0.635186
                        0.270186 -0.0227954 0.635186
                        0.27375 -0.0227954 0.631621
                        -0.27375 -0.0227954 0.631621
                        -0.270186 -0.0227954 0.635186
                        -0.270186 1.70842e-005 -0.635186
                        -0.27375 1.70842e-005 -0.631621
                        0.27375 1.70842e-005 -0.631621
                        0.270186 1.70842e-005 -0.635186
                        0.270186 1.70842e-005 0.635186
                        0.27375 1.70842e-005 0.631621
                        -0.27375 1.70842e-005 0.631621
                        -0.270186 1.70842e-005 0.635186
                        -0.261987 -0.0313501 -0.626987
                        -0.265552 -0.0313501 -0.623423
                        0.265552 -0.0313501 -0.623423
                        0.261987 -0.0313501 -0.626987
                        0.261987 -0.0313501 0.626987
                        0.265552 -0.0313501 0.623423
                        -0.265552 -0.0313501 0.623423
                        -0.261987 -0.0313501 0.626987
                        -0.273394 -0.0584399 -0.631215
                        -0.269829 -0.0584399 -0.63478
                        0.269829 -0.0584399 -0.63478
                        0.273394 -0.0584399 -0.631215
                        0.273394 -0.0584399 0.631215
                        0.269829 -0.0584399 0.63478
                        -0.269829 -0.0584399 0.63478
                        -0.273394 -0.0584399 0.631215
                        -0.273394 -0.0457973 -0.631215
                        -0.269829 -0.0457973 -0.63478
                        0.269829 -0.0457973 -0.63478
                        0.273394 -0.0457973 -0.631215
                        0.273394 -0.0457973 0.631215
                        0.269829 -0.0457973 0.63478
                        -0.269829 -0.0457973 0.63478
                        -0.273394 -0.0457973 0.631215
                        0.261987 -0.0457973 -0.626987
                        0.265552 -0.0457973 -0.623423
                        -0.265552 -0.0457973 -0.623423
                        -0.261987 -0.0457973 -0.626987
                        -0.261987 -0.0457973 0.626987
                        -0.265552 -0.0457973 0.623423
                        0.265552 -0.0457973 0.623423
                        0.261987 -0.0457973 0.626987
                        0.259136 -0.0584399 0.608973
                        0.247729 -0.0584399 0.62038
                        0.247729 -0.0584399 -0.620379
                        0.259136 -0.0584399 -0.608973
                        -0.259136 -0.0584399 -0.608973
                        -0.247729 -0.0584399 -0.620379
                        -0.247729 -0.0584399 0.62038
                        -0.259136 -0.0584399 0.608973
                        -0.209493 -0.169436 -0.595266
                        -0.221776 -0.160705 -0.608464
                        0.221776 -0.160705 -0.608464
                        -0.229984 -0.147638 -0.617283
                        0.229984 -0.147638 -0.617283
                        0.232866 -0.132224 -0.620379
                        -0.232866 -0.132224 -0.620379
                        0.253639 -0.0584399 -0.63478
                        0.253639 -0.0457973 -0.63478
                        -0.253639 -0.0584399 -0.63478
                        -0.253639 -0.0457973 -0.63478
                        0.253974 -0.0227954 -0.635186
                        0.253974 1.70842e-005 -0.635186
                        -0.253974 -0.0227954 -0.635186
                        -0.253974 1.70842e-005 -0.635186
                        0.246268 -0.0313501 -0.626987
                        -0.246268 -0.0313501 -0.626987
                        0.246268 -0.0457973 -0.626987
                        -0.246268 -0.0457973 -0.626987
                        0.232866 -0.0584399 -0.620379
                        -0.232866 -0.0584399 -0.620379
                        0.229984 -0.147638 0.617283
                        0.221776 -0.160705 0.608464
                        -0.229984 -0.147638 0.617283
                        -0.221776 -0.160705 0.608464
                        -0.232866 -0.132224 0.62038
                        0.232866 -0.132224 0.62038
                        -0.253639 -0.0584399 0.63478
                        -0.253639 -0.0457973 0.63478
                        0.253639 -0.0584399 0.63478
                        0.253639 -0.0457973 0.63478
                        -0.253974 -0.0227954 0.635186
                        -0.253974 1.70842e-005 0.635186
                        0.253974 -0.0227954 0.635186
                        0.253974 1.70842e-005 0.635186
                        -0.246268 -0.0313501 0.626987
                        0.246268 -0.0313501 0.626987
                        -0.246268 -0.0457973 0.626987
                        0.246268 -0.0457973 0.626987
                        -0.232866 -0.0584399 0.62038
                        0.232866 -0.0584399 0.62038
                        -0.273394 -0.0457973 -0.613124
                        -0.265552 -0.0457973 -0.605643
                        -0.273394 -0.0457973 0.613124
                        -0.265552 -0.0457973 0.605643
                        0.259136 -0.0584399 0.591772
                        0.273394 -0.0584399 0.613124
                        0.259136 -0.0584399 -0.591772
                        0.273394 -0.0584399 -0.613124
                        0.247339 -0.160705 0.580333
                        0.25607 -0.147638 0.588799
                        0.247339 -0.160705 -0.580333
                        0.25607 -0.147638 -0.588799
                        -0.259136 -0.0584399 -0.591772
                        -0.273394 -0.0584399 -0.613124
                        -0.259136 -0.0584399 0.591772
                        -0.273394 -0.0584399 0.613124
                        -0.265552 -0.0313501 -0.605643
                        -0.27375 -0.0227954 -0.613514
                        -0.265552 -0.0313501 0.605643
                        -0.27375 -0.0227954 0.613514
                        -0.27375 1.70842e-005 -0.613514
                        -0.27375 1.70842e-005 0.613514
                        0.27375 -0.0227954 0.613514
                        0.27375 1.70842e-005 0.613514
                        0.27375 -0.0227954 -0.613514
                        0.27375 1.70842e-005 -0.613514
                        -0.234271 -0.169436 -0.567663
                        0.265552 -0.0457973 0.605643
                        0.265552 -0.0313501 0.605643
                        0.265552 -0.0457973 -0.605643
                        0.265552 -0.0313501 -0.605643
                        0.259136 -0.132224 0.591772
                        0.259136 -0.132224 -0.591772
                        -0.25607 -0.147638 0.588799
                        -0.247339 -0.160705 0.580333
                        -0.25607 -0.147638 -0.588799
                        -0.247339 -0.160705 -0.580333
                        -0.259136 -0.132224 -0.591772
                        -0.259136 -0.132224 0.591772
                        0.273394 -0.0457973 0.613124
                        0.273394 -0.0457973 -0.613124
                        -0.199716 -0.172502 0.559775
                        0.199716 -0.172502 0.559775
                        -0.199716 -0.172502 -0.559775
                        0.199716 -0.172502 -0.559775
                        0.218857 -0.172502 -0.568292
                        0.207451 -0.172502 -0.579698
                        -0.207451 -0.172502 -0.579698
                        -0.218857 -0.172502 0.568292
                        -0.207451 -0.172502 0.579698
                        0.218857 -0.172502 0.568292
                        0.207451 -0.172502 0.579698
                        -0.222865 -0.169436 0.595266
                        -0.234271 -0.169436 0.58386
                        0.222865 -0.169436 0.595266
                        0.234271 -0.169436 0.58386
                        0.234271 -0.169436 -0.58386
                        0.222865 -0.169436 -0.595266
                        -0.218857 -0.172502 -0.568292
                    </float_array>
                    <technique_common>
                        <accessor count="182" source="#Geometry-mesh017-positions-array" stride="3">
                            <param name="X" type="float" />
                            <param name="Y" type="float" />
                            <param name="Z" type="float" />
                        </accessor>
                    </technique_common>
                </source>
                <source id="Geometry-mesh017-normals" name="normals">
                    <float_array id="Geometry-mesh017-normals-array" count="471">
                        0.0281217 -0.996105 -0.0835668
                        0.0980907 -0.994983 -0.0196922
                        0 -1 0
                        -0.119693 -0.932222 -0.341519
                        0 -0.925115 -0.379686
                        -0.0328071 -0.994696 -0.09749
                        -0.0327903 -0.997339 0.0651151
                        -0.0980907 -0.994983 0.0196922
                        0.0588461 -0.998073 0.019677
                        0.0328071 -0.994696 0.09749
                        0 -0.737765 0.675057
                        -0.233743 -0.746361 0.623145
                        -0.102456 -0.941646 0.320632
                        -0.588499 -0.784187 0.196773
                        -0.707107 -0.707107 0
                        -0.308898 -0.947279 0.0851188
                        0.233743 -0.746361 0.623145
                        0 -0.68181 0.73153
                        0.102646 -0.921803 0.373821
                        0.67844 -0.734656 0
                        0.588499 -0.784187 0.196773
                        0.292642 -0.953449 0.0727662
                        0.588499 -0.784187 -0.196773
                        0.734657 -0.678439 0
                        0.346745 -0.935111 -0.0730419
                        0 -0.737765 -0.675057
                        0.233744 -0.74636 -0.623145
                        0.119693 -0.932222 -0.341519
                        -0.382683 -0.92388 0
                        -0.308898 -0.947279 -0.0851188
                        -0.0817362 -0.996519 -0.0164089
                        -0.588499 -0.784187 -0.196773
                        -0.233744 -0.74636 -0.623145
                        0.626944 0.734509 -0.259687
                        0.717284 -0.630262 -0.297107
                        0.29711 0.630263 -0.717283
                        0.25969 -0.73451 -0.626942
                        -0.823332 -0.50459 0.259832
                        -0.626944 0.734509 0.259687
                        -0.330509 -0.438917 0.835533
                        -0.200691 0.851455 0.484507
                        0.923879 0 -0.382685
                        0.894805 -0.114914 -0.431415
                        0.382682 0 -0.92388
                        0.377803 -0.127702 -0.917037
                        0 -0.385689 -0.922629
                        0 -0.4463 -0.894884
                        0 -0.710349 -0.70385
                        0.330509 -0.438917 -0.835533
                        0 -0.425397 -0.905007
                        0.382685 0 -0.923879
                        0 0 -1
                        0 0.5547 -0.83205
                        0 0.8 -0.6
                        -0.29711 0.630263 -0.717283
                        -0.200691 0.851455 -0.484507
                        0 -0.707107 -0.707107
                        0 -0.8 -0.6
                        -0.25969 -0.73451 0.626942
                        0 -0.8 0.6
                        -0.29711 0.630263 0.717283
                        0 0.707107 0.707107
                        0 -0.372835 0.927897
                        0.296158 -0.573096 0.764102
                        0.357216 -0.291487 0.887374
                        0 -0.113097 0.993584
                        0 -0.0989701 0.99509
                        0 0 1
                        0.6 -0.8 0
                        0.484509 -0.851455 0.200689
                        -0.707107 -0.707107 0
                        -0.717284 -0.630262 0.297107
                        -0.6 -0.8 0
                        -0.707107 0.707107 0
                        -0.6 0.8 0
                        0.879016 -0.160483 0.448973
                        0.993707 -0.11201 0
                        0.92388 0 0.382683
                        1 0 0
                        -0.822972 -0.4747 -0.312053
                        -0.896538 -0.442967 0
                        -0.67844 -0.734656 0
                        -0.83205 0.5547 0
                        -0.954781 -0.29731 0
                        -0.927898 -0.372835 0
                        0.707107 -0.707107 0
                        0.6 0.8 0
                        -0.822972 -0.4747 0.312055
                        -0.341868 -0.398877 0.850896
                        -0.894806 -0.114914 0.431414
                        -0.377805 -0.127706 0.917036
                        -0.626944 0.734509 0.259687
                        -0.812521 0.475963 -0.336555
                        -0.387437 0.907821 -0.160481
                        0.336558 -0.475963 0.812519
                        -0.341869 -0.398875 -0.850896
                        -0.336558 -0.475963 -0.812519
                        0 0.707107 -0.707107
                        0 -0.385692 0.922628
                        0.341868 -0.398877 0.850896
                        0.380132 -0.0851163 0.921007
                        0 -0.425397 0.905007
                        0 -0.29731 0.954781
                        -0.382684 0 0.923879
                        -0.484509 -0.851455 -0.200689
                        0.83205 0.5547 0
                        0.626944 0.734509 -0.259687
                        0.927898 -0.372835 0
                        0.823332 -0.50459 -0.259832
                        -0.92388 -0.382683 0
                        -0.87954 -0.364693 -0.305627
                        0.707107 0.707107 0
                        -0.879015 -0.160483 -0.448974
                        -0.38013 -0.085114 -0.921009
                        0.29711 0.630263 0.717283
                        0.200691 0.851455 0.484507
                        0.387437 0.907821 0.160481
                        0.812521 0.475963 0.336555
                        0.382684 0 0.923879
                        0.200691 0.851455 -0.484507
                        0 -0.0989664 -0.995091
                        -0.382682 0 -0.92388
                        0 -0.446302 0.894883
                        0 0.5547 0.83205
                        -0.839459 -0.388234 0.38024
                        -1 0 0
                        -0.92388 0 0.382682
                        0.954781 -0.29731 0
                        0.839459 -0.388234 -0.38024
                        0.92388 0 -0.382682
                        0 -0.372835 -0.927897
                        -0.296158 -0.573096 -0.764102
                        -0.357216 -0.291487 -0.887374
                        0 -0.113093 -0.993584
                        0.382685 0 0.923879
                        0.92388 -0.382683 0
                        0.822972 -0.4747 -0.312053
                        -0.905007 -0.425397 0
                        0.87954 -0.364693 0.305627
                        0.995185 -0.0980182 0
                        0.905007 -0.425397 0
                        -0.995185 -0.0980182 0
                        -0.92388 0 0.382683
                        0.822972 -0.4747 0.312055
                        -0.382685 0 0.923879
                        0 -0.29731 -0.954781
                        0 -0.707107 0.707107
                        0.896538 -0.442967 0
                        -0.762594 -0.536875 -0.360854
                        -0.92388 0 -0.382682
                        0.762594 -0.536875 0.360854
                        -0.993707 -0.11201 0
                        0 0.8 0.6
                        -0.923879 0 -0.382685
                        0.341869 -0.398875 -0.850896
                        -0.382685 0 -0.923879
                        0.92388 0 0.382682
                    </float_array>
                    <technique_common>
                        <accessor count="157" source="#Geometry-mesh017-normals-array" stride="3">
                            <param name="X" type="float" />
                            <param name="Y" type="float" />
                            <param name="Z" type="float" />
                        </accessor>
                    </technique_common>
                </source>
                <source id="Geometry-mesh017-uvSet1" name="uvSet1">
                    <float_array id="Geometry-mesh017-uvSet1-array" count="468">
                        0.141015 0.266922
                        0.147382 0.254691
                        0.152969 0.275962
                        0.132003 0.74726
                        0.131855 0.733335
                        0.141252 0.730434
                        0.861354 0.730298
                        0.855015 0.742488
                        0.849423 0.72121
                        0.854756 0.254491
                        0.861091 0.266682
                        0.849182 0.275775
                        0.880174 0.747696
                        0.87903 0.76183
                        0.870816 0.748013
                        0.87225 0.774601
                        0.863207 0.777352
                        0.864988 0.759912
                        0.87871 0.235146
                        0.879869 0.249251
                        0.870539 0.248966
                        0.862889 0.219603
                        0.871979 0.222337
                        0.864703 0.237054
                        0.130147 0.222611
                        0.139213 0.219836
                        0.137425 0.237266
                        0.122215 0.249505
                        0.123347 0.235394
                        0.131559 0.24921
                        0.147497 0.759951
                        0.138461 0.759427
                        0.147455 0.742523
                        0.15309 0.721269
                        0.130533 0.774296
                        0.123805 0.761796
                        0.0376091 0.187321
                        0.0469232 0.187704
                        0.0382751 0.192675
                        0.0454458 0.193004
                        0.977727 0.802839
                        0.970285 0.802761
                        0.978311 0.796887
                        0.969373 0.797088
                        0.0877923 0.142244
                        0.119316 0.199134
                        0.0808991 0.155655
                        0.11046 0.215397
                        0.113261 0.758354
                        0.112887 0.239147
                        0.122538 0.747951
                        0.0164723 0.192752
                        0.0171101 0.210574
                        0.00291678 0.19247
                        0.00332895 0.21068
                        0.0334721 0.779312
                        0.0382276 0.787727
                        0.0334924 0.798113
                        0.0388031 0.805632
                        0.0459375 0.787792
                        0.04555 0.210469
                        0.054729 0.76436
                        0.0543685 0.233805
                        0.956964 0.804459
                        0.956846 0.786981
                        0.964132 0.804786
                        0.964575 0.786865
                        0.97772 0.218126
                        0.977907 0.19961
                        0.984891 0.209441
                        0.985494 0.191715
                        0.898869 0.762738
                        0.898492 0.234118
                        0.943557 0.760965
                        0.943236 0.235611
                        0.875017 0.0978179
                        0.888621 0.0816676
                        0.885783 0.0978773
                        0.899542 0.0819186
                        0.875259 0.899146
                        0.886022 0.899101
                        0.888854 0.915308
                        0.899791 0.915053
                        0.113554 0.915274
                        0.113475 0.929592
                        0.888907 0.929657
                        0.882992 0.19894
                        0.870903 0.184624
                        0.913965 0.142201
                        0.907106 0.127698
                        0.12423 0.786731
                        0.133587 0.794824
                        0.139277 0.777379
                        0.118189 0.9385
                        0.884191 0.938561
                        0.118181 0.954906
                        0.884197 0.954964
                        0.113439 0.081958
                        0.102509 0.0822517
                        0.113394 0.067605
                        0.102477 0.0678014
                        0.87837 0.786799
                        0.885846 0.773204
                        0.883053 0.798104
                        0.891923 0.781842
                        0.964812 0.810129
                        0.0382803 0.811404
                        0.0326229 0.80416
                        0.941113 0.20246
                        0.954933 0.187097
                        0.947683 0.215973
                        0.956532 0.191986
                        0.116913 0.773156
                        0.0459182 0.805344
                        0.0378232 0.210604
                        0.0330764 0.219066
                        0.0543867 0.216756
                        0.889149 0.238819
                        0.885517 0.223856
                        0.891632 0.215487
                        0.985288 0.786931
                        0.978105 0.778282
                        0.921453 0.841616
                        0.928256 0.830753
                        0.895078 0.938512
                        0.899818 0.92951
                        0.127139 0.899109
                        0.102608 0.915007
                        0.102554 0.929436
                        0.118089 0.0587062
                        0.107224 0.0587687
                        0.11808 0.0423037
                        0.107223 0.0424238
                        0.868882 0.794804
                        0.107319 0.938462
                        0.107331 0.9548
                        0.888662 0.0673123
                        0.119339 0.797987
                        0.110756 0.781523
                        0.968949 0.199253
                        0.963646 0.191719
                        0.969823 0.19321
                        0.964186 0.185957
                        0.95549 0.809761
                        0.921236 0.15481
                        0.0330355 0.200381
                        0.103937 0.763068
                        0.0744396 0.830336
                        0.0810574 0.842036
                        0.889486 0.758099
                        0.985926 0.804749
                        0.968944 0.218044
                        0.116368 0.899045
                        0.889182 0.968403
                        0.900089 0.968299
                        0.889165 0.994306
                        0.900125 0.994204
                        0.883944 0.0584095
                        0.883974 0.0420097
                        0.113095 0.0288693
                        0.102184 0.0290017
                        0.899578 0.0674634
                        0.00297505 0.186752
                        0.0170124 0.187167
                        0.0246815 0.194642
                        0.0321201 0.194705
                        0.0240989 0.200597
                        0.94152 0.794409
                        0.94801 0.780684
                        0.0247048 0.77925
                        0.0245307 0.797761
                        0.0175259 0.787937
                        0.0169629 0.805682
                        0.103521 0.234524
                        0.0588368 0.236452
                        0.0591937 0.761701
                        0.99869 0.209481
                        0.998918 0.191038
                        0.969322 0.778412
                        0.133512 0.202392
                        0.124006 0.210435
                        0.113217 0.968362
                        0.11321 0.994249
                        0.894816 0.0584417
                        0.894808 0.0421018
                        0.131178 0.184886
                        0.888959 0.0285689
                        0.871181 0.812326
                        0.907148 0.869159
                        0.914558 0.855023
                        0.878137 0.210113
                        0.0475221 0.810227
                        0.0251886 0.803405
                        0.999471 0.805057
                        0.985379 0.810336
                        0.999409 0.810775
                        0.0243095 0.2192
                        0.0741156 0.1665
                        0.999082 0.786822
                        0.956482 0.209533
                        0.947701 0.232955
                        0.868583 0.202142
                        0.102284 0.968207
                        0.102232 0.994143
                        0.113085 0.00298223
                        0.102142 0.00308343
                        0.899885 0.0287029
                        0.131272 0.812327
                        0.13088 0.895103
                        0.871519 0.89514
                        0.0175875 0.811175
                        0.977256 0.193964
                        0.0613306 0.794835
                        0.0547374 0.781329
                        0.964205 0.209628
                        0.948025 0.763617
                        0.895048 0.954879
                        0.88894 0.00266599
                        0.0883066 0.854672
                        0.0951664 0.869176
                        0.116514 0.224047
                        0.00360635 0.812194
                        0.00352374 0.806362
                        0.984876 0.186222
                        0.0608685 0.203057
                        0.00373897 0.787912
                        0.927869 0.166481
                        0.127043 0.0981079
                        0.871278 0.101824
                        0.130784 0.102112
                        0.998838 0.185207
                        0.116284 0.0981713
                        0.899917 0.00275341
                        0.0951982 0.128101
                    </float_array>
                    <technique_common>
                        <accessor count="234" source="#Geometry-mesh017-uvSet1-array" stride="2">
                            <param name="S" type="float" />
                            <param name="T" type="float" />
                        </accessor>
                    </technique_common>
                </source>
                <vertices id="Geometry-mesh017-vertices">
                    <input semantic="POSITION" source="#Geometry-mesh017-positions" />
                </vertices>
                <polylist count="346" material="Material-fluorescent_ceil_cabin_large">
                    <input semantic="VERTEX" source="#Geometry-mesh017-vertices" offset="0" />
                    <input semantic="NORMAL" source="#Geometry-mesh017-normals" offset="1" />
                    <input semantic="TEXCOORD" source="#Geometry-mesh017-uvSet1" offset="2" set="0" />
                    <vcount>3 3 3 3 3 3 3 3 3 3 3 3 3 3 3 3 3 3 3 3 3 3 3 3 3 3 3 3 3 3 3 3 3 3 3 3 3 3 3 3 3 3 3 3 3 3 3 3 3 3 3 3 3 3 3 3 3 3 3 3 3 3 3 3 3 3 3 3 3 3 3 3 3 3 3 3 3 3 3 3 3 3 3 3 3 3 3 3 3 3 3 3 3 3 3 3 3 3 3 3 3 3 3 3 3 3 3 3 3 3 3 3 3 3 3 3 3 3 3 3 3 3 3 3 3 3 3 3 3 3 3 3 3 3 3 3 3 3 3 3 3 3 3 3 3 3 3 3 3 3 3 3 3 3 3 3 3 3 3 3 3 3 3 3 3 3 3 3 3 3 3 3 3 3 3 3 3 3 3 3 3 3 3 3 3 3 3 3 3 3 3 3 3 3 3 3 3 3 3 3 3 3 3 3 3 3 3 3 3 3 3 3 3 3 3 3 3 3 3 3 3 3 3 3 3 3 3 3 3 3 3 3 3 3 3 3 3 3 3 3 3 3 3 3 3 3 3 3 3 3 3 3 3 3 3 3 3 3 3 3 3 3 3 3 3 3 3 3 3 3 3 3 3 3 3 3 3 3 3 3 3 3 3 3 3 3 3 3 3 3 3 3 3 3 3 3 3 3 3 3 3 3 3 3 3 3 3 3 3 3 3 3 3 3 3 3 3 3 3 3 3 3 3 3 3 3 3 3 3 3 3 3 3 3 3 3 3 3 3 3 3 3 3 3 3 3</vcount>
                    <p>169 0 0 168 1 1 167 2 2 8 3 3 82 4 4 170 5 5 172 6 6 171 7 7 164 2 8 173 8 9 174 9 10 165 2 11 106 10 12 11 11 13 175 12 14 10 13 15 157 14 16 176 15 17 20 16 18 104 17 19 177 18 20 131 19 21 21 20 22 178 21 23 19 22 24 133 23 25 179 24 26 84 25 27 18 26 28 180 27 29 149 28 30 9 29 31 181 30 32 181 30 32 170 5 5 166 2 33 9 29 31 12 31 34 8 3 3 13 32 35 8 3 3 12 31 34 61 33 36 53 34 37 60 35 38 52 36 39 60 35 38 53 34 37 48 37 40 71 38 41 49 39 42 70 40 43 49 39 42 71 38 41 77 41 44 2 42 45 76 43 46 3 44 47 76 43 46 2 42 45 85 45 48 86 46 49 83 47 50 84 25 27 83 47 50 86 46 49 29 48 51 93 49 52 37 50 53 94 51 54 37 50 53 93 49 52 100 52 55 92 53 56 69 54 57 59 55 58 69 54 57 92 53 56 91 56 59 89 57 60 102 2 61 101 2 62 102 2 61 89 57 60 56 58 63 109 59 64 64 60 65 110 61 66 64 60 65 109 59 64 118 62 67 46 63 68 115 62 69 30 64 70 115 62 69 46 63 68 107 65 71 108 66 72 121 67 73 122 67 74 121 67 73 108 66 72 127 2 75 128 68 76 74 2 77 54 69 78 74 2 77 128 68 76 137 2 79 81 2 80 138 70 81 57 71 82 138 70 81 81 2 80 136 72 83 138 70 81 123 73 84 125 74 85 123 73 84 138 70 81 4 75 86 154 76 87 74 77 88 127 78 89 74 77 88 154 76 87 17 79 90 12 31 34 158 80 91 159 81 92 158 80 91 12 31 34 124 73 93 126 82 94 139 83 95 141 84 96 139 83 95 126 82 94 130 85 97 53 34 98 163 86 99 61 33 100 163 86 99 53 34 98 171 7 7 172 6 6 176 15 17 175 12 14 176 15 17 172 6 6 178 21 23 179 24 26 131 19 21 133 23 25 131 19 21 179 24 26 181 30 32 9 29 31 170 5 5 8 3 3 170 5 5 9 29 31 14 87 101 15 88 102 6 89 103 7 90 104 6 89 103 15 88 102 70 40 43 71 38 41 64 60 65 65 91 105 64 60 65 71 38 41 58 92 106 68 93 107 59 55 58 69 54 57 59 55 58 68 93 107 74 2 108 54 69 109 75 2 110 55 94 111 75 2 110 54 69 109 16 95 112 85 45 48 13 32 35 83 47 50 13 32 35 85 45 48 91 56 59 51 96 113 92 53 56 59 55 58 92 53 56 51 96 113 90 97 114 92 53 56 99 97 115 100 52 55 99 97 115 92 53 56 52 36 39 76 2 116 89 57 60 101 2 62 89 57 60 76 2 116 103 98 117 24 99 118 108 66 72 5 100 119 108 66 72 24 99 118 115 62 69 113 101 120 118 62 67 117 102 121 118 62 67 113 101 120 7 90 104 107 65 71 80 103 122 121 67 123 80 103 122 107 65 71 126 82 94 125 74 85 71 38 124 65 91 125 71 38 124 125 74 85 138 70 81 136 72 83 137 2 79 135 2 126 137 2 79 136 72 83 50 104 127 136 72 83 58 92 128 123 73 84 58 92 128 136 72 83 152 105 129 67 106 130 153 107 131 44 108 132 153 107 131 67 106 130 156 109 133 158 80 91 157 14 16 159 81 92 157 14 16 158 80 91 68 93 134 124 73 93 43 110 135 139 83 95 43 110 135 124 73 93 128 68 76 130 85 97 162 111 136 163 86 99 162 111 136 130 85 97 170 5 5 169 0 0 166 2 33 167 2 2 166 2 33 169 0 0 176 15 17 175 12 14 10 13 15 11 11 13 10 13 15 175 12 14 17 79 90 0 112 137 16 95 112 1 113 138 16 95 112 0 112 137 73 114 139 63 115 140 72 116 141 62 117 142 72 116 141 63 115 140 65 91 105 57 71 143 64 60 65 56 58 63 64 60 65 57 71 143 75 118 144 5 100 119 74 77 88 4 75 86 74 77 88 5 100 119 13 32 35 83 47 50 8 3 3 82 4 4 8 3 3 83 47 50 89 57 60 91 56 59 90 97 114 92 53 56 90 97 114 91 56 59 99 97 115 66 119 145 90 97 114 60 35 38 90 97 114 66 119 145 88 120 146 1 113 138 102 51 147 79 121 148 102 51 147 1 113 138 108 66 72 107 65 71 103 98 117 105 122 149 103 98 117 107 65 71 117 102 121 113 101 120 49 39 42 33 39 150 49 39 42 113 101 120 120 123 151 73 114 139 118 62 67 46 63 68 118 62 67 73 114 139 124 73 93 123 73 84 125 74 85 125 74 85 126 82 94 124 73 93 135 2 126 136 72 83 78 2 152 50 104 127 78 2 152 136 72 83 142 84 153 32 124 154 144 125 155 40 126 156 144 125 155 32 124 154 150 111 157 152 105 129 151 127 158 153 107 131 151 127 158 152 105 129 14 87 101 156 109 133 10 13 15 157 14 16 10 13 15 156 109 133 153 107 131 44 108 132 147 107 159 28 128 160 147 107 159 44 108 132 54 69 78 128 68 76 62 117 161 162 111 136 62 117 161 128 68 76 176 15 17 157 14 16 149 28 30 159 81 92 149 28 30 157 14 16 173 8 9 178 21 23 174 9 10 177 18 20 174 9 10 178 21 23 168 1 1 169 0 0 179 24 26 180 27 29 179 24 26 169 0 0 12 31 34 17 79 90 13 32 35 16 95 112 13 32 35 17 79 90 36 129 162 28 128 163 37 50 53 29 48 51 37 50 53 28 128 163 44 108 164 67 106 165 45 48 166 66 119 145 45 48 166 67 106 165 44 108 164 45 48 166 28 128 163 29 48 51 28 128 163 45 48 166 81 2 167 80 2 168 57 71 143 56 58 63 57 71 143 80 2 168 52 36 39 89 57 60 60 35 38 90 97 114 60 35 38 89 57 60 98 130 169 42 131 170 95 130 171 26 132 172 95 130 171 42 131 170 87 133 173 88 120 146 101 51 174 102 51 175 101 51 174 88 120 146 105 122 149 107 65 71 15 88 102 7 90 104 15 88 102 107 65 71 115 62 69 30 64 70 116 67 176 38 134 177 116 67 176 30 64 70 119 61 178 120 123 151 117 102 121 118 62 67 117 102 121 120 123 151 124 73 93 68 93 134 123 73 84 58 92 128 123 73 84 68 93 134 133 23 25 19 22 24 134 135 179 23 136 180 134 135 179 19 22 24 140 137 181 142 84 153 143 125 182 144 125 155 143 125 182 142 84 153 72 116 183 150 111 157 47 138 184 151 127 158 47 138 184 150 111 157 134 135 179 23 136 180 155 139 185 2 42 45 155 139 185 23 136 180 153 107 131 147 107 159 145 140 186 151 127 158 153 107 131 145 140 186 161 141 187 6 89 103 137 125 188 81 142 189 137 125 188 6 89 103 178 21 23 21 20 22 177 18 20 20 16 18 177 18 20 21 20 22 179 24 26 180 27 29 19 22 24 18 26 28 19 22 24 180 27 29 21 20 22 25 143 190 20 16 18 24 99 118 20 16 18 25 143 190 50 104 191 58 92 106 51 96 113 59 55 58 51 96 113 58 92 106 68 93 107 43 110 192 69 54 57 42 131 170 69 54 57 43 110 192 33 39 150 41 144 193 32 124 194 40 126 195 32 124 194 41 144 193 81 142 189 6 89 103 80 103 122 7 90 104 80 103 122 6 89 103 85 45 48 16 95 112 88 120 146 1 113 138 88 120 146 16 95 112 95 130 171 93 49 52 98 130 169 97 145 196 98 130 169 93 49 52 3 44 47 87 133 173 76 43 46 101 51 197 76 43 46 87 133 173 15 88 102 11 11 13 105 122 149 106 10 12 105 122 149 11 11 13 113 101 120 115 62 69 114 67 198 116 67 176 114 67 198 115 62 69 70 40 43 119 61 178 49 39 42 117 102 121 49 39 42 119 61 178 55 94 111 111 146 199 75 2 110 122 2 200 75 2 110 111 146 199 134 135 179 132 147 201 133 23 25 131 19 21 133 23 25 132 147 201 27 148 202 140 137 181 35 149 203 143 125 182 35 149 203 140 137 181 147 107 159 28 128 160 148 78 204 36 129 205 148 78 204 28 128 160 155 139 185 154 76 87 134 135 179 132 147 201 134 135 179 154 76 87 151 127 158 145 140 186 47 138 184 31 150 206 47 138 184 145 140 186 160 151 207 161 141 187 135 125 208 137 125 209 135 125 208 161 141 187 165 2 11 164 2 8 167 2 2 166 2 33 167 2 2 164 2 8 170 5 5 82 4 4 169 0 0 180 27 29 169 0 0 82 4 4 25 143 190 4 75 86 24 99 118 5 100 119 24 99 118 4 75 86 43 110 192 27 148 210 42 131 170 26 132 172 42 131 170 27 148 210 48 37 40 49 39 42 32 124 194 33 39 150 32 124 194 49 39 42 72 116 141 47 138 211 73 114 139 46 63 68 73 114 139 47 138 211 78 2 212 50 104 191 79 2 213 51 96 113 79 2 213 50 104 191 88 120 146 87 133 173 85 45 48 86 46 49 85 45 48 87 133 173 97 145 196 93 49 52 45 48 166 29 48 51 45 48 166 93 49 52 100 52 55 69 54 57 98 130 169 42 131 170 98 130 169 69 54 57 103 98 117 105 122 149 104 17 19 106 10 12 104 17 19 105 122 149 33 39 150 113 101 120 41 144 193 114 67 198 41 144 193 113 101 120 120 123 151 112 152 214 73 114 139 63 115 140 73 114 139 112 152 214 111 146 199 109 59 64 122 2 200 121 2 215 122 2 200 109 59 64 131 19 21 132 147 201 21 20 22 25 143 190 21 20 22 132 147 201 141 84 96 48 37 216 142 84 153 32 124 154 142 84 153 48 37 216 145 140 186 147 107 159 146 78 217 148 78 204 146 78 217 147 107 159 132 147 201 154 76 87 25 143 190 4 75 86 25 143 190 154 76 87 156 109 133 14 87 101 161 141 187 6 89 103 161 141 187 14 87 101 0 112 137 160 151 207 78 153 218 135 125 219 78 153 218 160 151 207 152 105 129 163 86 99 67 106 130 61 33 100 67 106 130 163 86 99 177 18 20 175 12 14 174 9 10 172 6 6 174 9 10 175 12 14 181 30 32 171 7 7 149 28 30 176 15 17 149 28 30 171 7 7 19 22 24 18 26 28 23 136 180 22 154 220 23 136 180 18 26 28 23 136 180 22 154 220 2 42 45 3 44 47 2 42 45 22 154 220 27 148 210 35 149 221 26 132 172 34 155 222 26 132 172 35 149 221 47 138 211 31 150 223 46 63 68 30 64 70 46 63 68 31 150 223 77 2 224 76 2 116 53 34 37 52 36 39 53 34 37 76 2 116 22 154 220 18 26 28 86 46 49 84 25 27 86 46 49 18 26 28 93 49 52 95 130 171 94 51 54 96 51 225 94 51 54 95 130 171 66 119 145 99 97 115 45 48 166 97 145 196 45 48 166 99 97 115 51 96 113 91 56 59 79 2 213 102 2 61 79 2 213 91 56 59 109 59 64 111 146 199 110 61 66 112 152 214 110 61 66 111 146 199 119 61 178 70 40 43 110 61 66 64 60 65 110 61 66 70 40 43 108 66 72 5 100 119 122 67 226 75 118 144 122 67 226 5 100 119 130 85 97 128 68 76 129 2 227 127 2 75 129 2 227 128 68 76 139 83 95 140 137 181 43 110 135 27 148 202 43 110 135 140 137 181 138 70 81 57 71 82 125 74 85 65 91 125 125 74 85 57 71 82 154 76 87 155 139 185 127 78 228 129 78 229 127 78 228 155 139 185 158 80 91 160 151 207 17 79 90 0 112 137 17 79 90 160 151 207 126 82 94 71 38 124 141 84 96 48 37 216 141 84 96 71 38 124 150 111 157 72 116 183 162 111 136 62 117 161 162 111 136 72 116 183 168 1 1 173 8 9 167 2 2 165 2 11 167 2 2 173 8 9 179 24 26 178 21 23 168 1 1 173 8 9 168 1 1 178 21 23 10 13 15 11 11 13 14 87 101 15 88 102 14 87 101 11 11 13 38 134 177 30 64 70 39 156 230 31 150 223 39 156 230 30 64 70 54 69 109 62 117 142 55 94 111 63 115 140 55 94 111 62 117 142 61 33 36 60 35 38 67 106 165 66 119 145 67 106 165 60 35 38 0 112 137 78 153 218 1 113 138 79 121 148 1 113 138 78 153 218 86 46 49 87 133 173 22 154 220 3 44 47 22 154 220 87 133 173 95 130 171 26 132 172 96 51 225 34 155 222 96 51 225 26 132 172 99 97 115 100 52 55 97 145 196 98 130 169 97 145 196 100 52 55 24 99 118 103 98 117 20 16 18 104 17 19 20 16 18 103 98 117 111 146 199 55 94 111 112 152 214 63 115 140 112 152 214 55 94 111 110 61 66 112 152 214 119 61 178 120 123 151 119 61 178 112 152 214 56 58 63 80 2 168 109 59 64 121 2 215 109 59 64 80 2 168 129 2 227 77 2 231 130 85 97 53 34 98 130 85 97 77 2 231 141 84 96 142 84 153 140 137 181 139 83 95 141 84 96 140 137 181 31 150 206 145 140 186 39 156 232 146 78 217 39 156 232 145 140 186 155 139 185 2 42 45 129 78 233 77 41 44 129 78 233 2 42 45 161 141 187 160 151 207 156 109 133 158 80 91 156 109 133 160 151 207 12 31 34 9 29 31 159 81 92 149 28 30 159 81 92 9 29 31 150 111 157 162 111 136 163 86 99 163 86 99 152 105 129 150 111 157 174 9 10 172 6 6 165 2 11 164 2 8 165 2 11 172 6 6 175 12 14 177 18 20 106 10 12 104 17 19 106 10 12 177 18 20 180 27 29 82 4 4 84 25 27 83 47 50 84 25 27 82 4 4 171 7 7 181 30 32 164 2 8 166 2 33 164 2 8 181 30 32</p>
                </polylist>
                <extra>
                    <technique profile="modo401">
                        <param sid="render" name="Render" type="Name">default</param>
                        <param sid="dissolve" name="Dissolve" type="float">0</param>
                        <param sid="curves" name="Render_Curves" type="bool">false</param>
                        <param sid="radius" name="Curve_Radius" type="float">0.05</param>
                    </technique>
                </extra>
            </mesh>
        </geometry>
    </library_geometries>
    <library_lights>
        <light id="Light-polyRender007" name="Render">
            <technique_common>
                <ambient>
                    <color sid="ambient_light_rgb">0.05 0.05 0.05</color>
                </ambient>
            </technique_common>
        </light>
        <light id="Light-sunLight008" name="Directional_Light">
            <technique_common>
                <directional>
                    <color sid="directional_light_rgb">1 1 1</color>
                </directional>
            </technique_common>
            <extra>
                <technique profile="modo401">
                    <param sid="lightType" name="Light_Type" type="Name">sun_light</param>
                    <param sid="render" name="Render" type="Name">default</param>
                    <param sid="visible" name="Display_Visible" type="Name">default</param>
                    <param sid="size" name="Display_Size" type="float">1</param>
                    <param sid="dissolve" name="Dissolve" type="float">0</param>
                    <param sid="radiance" name="Radiant_Intensity" type="float">3</param>
                    <param sid="samples" name="Samples" type="int">64</param>
                    <param sid="shadType" name="Shadow_Type" type="Name">raytrace</param>
                    <param sid="shadRes" name="Shadow_Resolution" type="int">1024</param>
                    <param sid="fast" name="Simple_Shading" type="bool">true</param>
                    <param sid="azimuth" name="Azimuth" type="float">0</param>
                    <param sid="clamp" name="Clamp_Intensity" type="bool">true</param>
                    <param sid="day" name="Day" type="int">2012173</param>
                    <param sid="elevation" name="Elevation" type="float">0</param>
                    <param sid="haze" name="Haze" type="float">2</param>
                    <param sid="height" name="Height" type="float">10</param>
                    <param sid="lat" name="Latitude" type="float">0.655057</param>
                    <param sid="lon" name="Longitude" type="float">-2.13456</param>
                    <param sid="mapSize" name="Map_Size" type="float">2</param>
                    <param sid="north" name="North" type="float">0</param>
                    <param sid="radius" name="Radius" type="float">0.5</param>
                    <param sid="spread" name="Spread" type="float">0</param>
                    <param sid="sunPos" name="Sun_Position" type="bool">false</param>
                    <param sid="time" name="Time" type="float">12</param>
                    <param sid="timeZone" name="Time_Zone" type="float">-8</param>
                    <param sid="volumetrics" name="Volumetrics" type="bool">false</param>
                    <param sid="vdissolve" name="Volumetrics_Dissolve" type="float">0</param>
                    <param sid="vsamples" name="Volumetric_Samples" type="int">40</param>
                </technique>
            </extra>
        </light>
    </library_lights>
    <library_nodes id="shader_tree" name="Shader_Tree">
        <node sid="shader_tree_render" name="Render">
            <extra>
                <technique profile="modo401">
                    <param sid="first" name="Frame_Range_First" type="int">1</param>
                    <param sid="last" name="Frame_Range_Last" type="int">120</param>
                    <param sid="dpi" name="Frame_DPI" type="float">300</param>
                    <param sid="resUnit" name="Resolution_Unit" type="Name">pixels</param>
                    <param sid="pAspect" name="Frame_Pixel_Aspect_Ratio" type="float">1</param>
                    <param sid="bucketX" name="Bucket_Width" type="int">32</param>
                    <param sid="bucketY" name="Bucket_Height" type="int">32</param>
                    <param sid="bktOrder" name="Bucket_Order" type="Name">hilbert</param>
                    <param sid="bktSkip" name="Skip_Existing_Buckets" type="bool">false</param>
                    <param sid="region" name="Render_Region" type="bool">false</param>
                    <param sid="regX0" name="Render_Region_Left" type="float">0</param>
                    <param sid="regX1" name="Render_Region_Right" type="float">1</param>
                    <param sid="regY0" name="Render_Region_Top" type="float">0</param>
                    <param sid="regY1" name="Render_Region_Bottom" type="float">1</param>
                    <param sid="aa" name="Render_Antialiasing" type="Name">s8</param>
                    <param sid="aaFilter" name="Render_Antialiasing_Filter" type="Name">gaussian</param>
                    <param sid="fineRate" name="Refinement_Shading_Rate" type="float">0.25</param>
                    <param sid="fineThresh" name="Refinement_Threshold" type="float">0.1</param>
                    <param sid="bktRefine" name="Refine_Bucket_Borders" type="bool">false</param>
                    <param sid="dof" name="Render_Depth_of_Field" type="bool">false</param>
                    <param sid="mBlur" name="Render_Motion_Blur" type="bool">false</param>
                    <param sid="stereo" name="Render_Stereoscopic" type="bool">false</param>
                    <param sid="rayShadow" name="Ray_Tracing_Shadows" type="bool">true</param>
                    <param sid="reflDepth" name="Reflection_Depth" type="int">8</param>
                    <param sid="refrDepth" name="Refraction_Depth" type="int">8</param>
                    <param sid="rayThresh" name="Ray_Threshold" type="float">0.001</param>
                    <param sid="subdAdapt" name="Adaptive_Subdivision" type="bool">false</param>
                    <param sid="subdRate" name="Subdivision_Rate" type="float">10</param>
                    <param sid="dispEnable" name="Micropoly_Displacement" type="bool">true</param>
                    <param sid="dispRate" name="Displacement_Rate" type="float">1</param>
                    <param sid="dispRatio" name="Displacement_Ratio" type="float">4</param>
                    <param sid="edgeMin" name="Minimum_Edge_Length" type="float">0.0001</param>
                    <param sid="dispSmooth" name="Smooth_Positions" type="bool">true</param>
                    <param sid="ambRad" name="Ambient_Intensity" type="float">0.05</param>
                    <param sid="ambColor" name="Ambient_Color" type="color">1 1 1</param>
                    <param sid="globEnable" name="Enable_Indirect_Illumination" type="bool">false</param>
                    <param sid="globScope" name="Indirect_Illumination_Scope" type="Name">all</param>
                    <param sid="globRays" name="Indirect_Rays" type="int">64</param>
                    <param sid="globLimit" name="Indirect_Bounces" type="int">1</param>
                    <param sid="globRange" name="Indirect_Range" type="float">0</param>
                    <param sid="globSubs" name="Subsurface_Scattering" type="int">0</param>
                    <param sid="globVols" name="Volumetrics_Affect_Indirect" type="bool">false</param>
                    <param sid="irrCache" name="Enable_Irradiance_Caching" type="bool">true</param>
                    <param sid="irrRays" name="Irradiance_Rays" type="int">256</param>
                    <param sid="globSuper" name="Indirect_Supersampling" type="bool">true</param>
                    <param sid="irrRate" name="Irradiance_Rate" type="float">2.5</param>
                    <param sid="irrRatio" name="Irradiance_Ratio" type="float">6</param>
                    <param sid="irrVals" name="Interpolation_Values" type="int">1</param>
                    <param sid="irrGrads" name="Irradiance_Gradients" type="Name">both</param>
                    <param sid="irrWalk" name="Walkthrough_Mode" type="bool">false</param>
                    <param sid="irrLEnable" name="Load_Irradiance_before_Render" type="bool">false</param>
                    <param sid="irrLName" name="Load_Irradiance_File" type="Name"></param>
                    <param sid="irrSEnable" name="Save_Irradiance_after_Render" type="bool">false</param>
                    <param sid="irrSName" name="Save_Irradiance_File" type="Name"></param>
                    <param sid="causEnable" name="Enable_Direct_Caustics" type="bool">false</param>
                    <param sid="causTotal" name="Caustics_Total_Photons" type="int">100000</param>
                    <param sid="causLocal" name="Caustics_Local_Photons" type="int">32</param>
                    <param sid="globCaus" name="Indirect_Caustics" type="Name">refraction</param>
                </technique>
            </extra>
        </node>
        <node sid="shader_tree_environment" name="Environment">
            <extra>
                <technique profile="modo401">
                    <param sid="radiance" name="Environment_Intensity" type="float">1</param>
                    <param sid="visCam" name="Environment_Visible_to_Camera" type="bool">true</param>
                    <param sid="visInd" name="Environment_Visible_to_Indirect_Rays" type="bool">true</param>
                    <param sid="visRefl" name="Environment_Visible_to_Reflection_Rays" type="bool">true</param>
                    <param sid="visRefr" name="Environment_Visible_to_Refraction_Rays" type="bool">true</param>
                </technique>
            </extra>
        </node>
    </library_nodes>
    <library_visual_scenes>
        <visual_scene id="DefaultScene">
            <node id="polyRender007" name="Render" type="NODE">
                <instance_light url="#Light-polyRender007" />
            </node>
            <node id="Geometry-mesh017Node" name="flourescent_ceil_cabin_large" type="NODE">
                <instance_geometry url="#Geometry-mesh017">
                    <bind_material>
                        <technique_common>
                            <instance_material symbol="Material-fluorescent_ceil_cabin_large" target="#Material-fluorescent_ceil_cabin_large">
                                <bind_vertex_input semantic="uvSet1" input_semantic="TEXCOORD" input_set="0" />
                            </instance_material>
                        </technique_common>
                    </bind_material>
                </instance_geometry>
            </node>
            <node id="Camera-camera004Node" name="Camera" type="NODE">
                <translate sid="translation005">0 0.75 4</translate>
                <rotate sid="rotation006Y">0 1 0 0</rotate>
                <rotate sid="rotation006X">1 0 0 -5</rotate>
                <rotate sid="rotation006Z">0 0 1 0</rotate>
                <instance_camera url="#Camera-camera004" />
            </node>
            <node id="groupLocator025Node" name="Texture_Group" type="NODE">
                <node id="txtrLocator014Node" name="fluorescent_ceil_cabin_large_illum__Image___Texture_" type="NODE">
                    <translate sid="translation017">0 0 0</translate>
                    <rotate sid="rotation016Y">0 1 0 0</rotate>
                    <rotate sid="rotation016X">1 0 0 0</rotate>
                    <rotate sid="rotation016Z">0 0 1 0</rotate>
                    <scale sid="scale015">1 1 1</scale>
                </node>
                <node id="txtrLocator009Node" name="fluorescent_ceil_cabin_large_spec__Image___Texture_" type="NODE">
                    <translate sid="translation012">0 0 0</translate>
                    <rotate sid="rotation011Y">0 1 0 0</rotate>
                    <rotate sid="rotation011X">1 0 0 0</rotate>
                    <rotate sid="rotation011Z">0 0 1 0</rotate>
                    <scale sid="scale010">1 1 1</scale>
                </node>
                <node id="txtrLocator003Node" name="fluorescent_ceil_cabin_large__Image___Texture_" type="NODE">
                    <translate sid="translation007">0 0 0</translate>
                    <rotate sid="rotation005Y">0 1 0 0</rotate>
                    <rotate sid="rotation005X">1 0 0 0</rotate>
                    <rotate sid="rotation005Z">0 0 1 0</rotate>
                    <scale sid="scale004">1 1 1</scale>
                </node>
                <node id="txtrLocator002Node" name="fluorescent_ceil_cabin_large_nrm__Image___Texture_" type="NODE">
                    <translate sid="translation006">0 0 0</translate>
                    <rotate sid="rotation004Y">0 1 0 0</rotate>
                    <rotate sid="rotation004X">1 0 0 0</rotate>
                    <rotate sid="rotation004Z">0 0 1 0</rotate>
                    <scale sid="scale003">1 1 1</scale>
                </node>
            </node>
            <node id="Light-sunLight008Node" name="Directional_Light" type="NODE">
                <translate sid="translation009">-2 2 2</translate>
                <rotate sid="rotation010Y">0 1 0 -45</rotate>
                <rotate sid="rotation010X">1 0 0 -30</rotate>
                <rotate sid="rotation010Z">0 0 1 0</rotate>
                <instance_light url="#Light-sunLight008" />
            </node>
            <extra>
                <technique profile="modo401">
                    <param sid="fps" name="Scene_FPS" type="float">24</param>
                    <param sid="sceneS" name="Scene_Start_Time" type="float">0</param>
                    <param sid="sceneE" name="Scene_End_Time" type="float">5</param>
                    <param sid="currentS" name="Scene_Current_Start_Time" type="float">0</param>
                    <param sid="currentE" name="Scene_Current_End_Time" type="float">5</param>
                    <param sid="timeSys" name="Scene_Time_System" type="Name">frames</param>
                </technique>
            </extra>
            <extra>
                <technique profile="MAX3D">
                    <frame_rate>24</frame_rate>
                </technique>
            </extra>
            <extra>
                <technique profile="MAYA">
                    <start_time>0</start_time>
                    <end_time>5</end_time>
                </technique>
            </extra>
            <extra>
                <technique profile="OKINO" />
            </extra>
            <extra>
                <technique profile="XSI">
                    <SI_Scene>
                        <frame_rate>24</frame_rate>
                    </SI_Scene>
                </technique>
            </extra>
        </visual_scene>
    </library_visual_scenes>
    <scene>
        <instance_visual_scene url="#DefaultScene" />
    </scene>
</COLLADA>
